# w = (H-sigma_ss) = pore width = 1.5 [nm]
# P[atm], V[molecules/nm3], V[mmol/cm3], V[cm3(STP)/cm3], Omega/epsilon_ff[1/nm2]
3.94968e-08, 1.19262e-06, 1.98039e-06, 4.43885e-05, -4.03445e-06
7.64123e-08, 1.45105e-06, 2.40952e-06, 5.40071e-05, -4.92598e-06
1.43531e-07, 1.98433e-06, 3.29506e-06, 7.38555e-05, -6.74844e-06
2.61763e-07, 2.94506e-06, 4.89039e-06, 0.000109613, -1.00367e-05
4.64152e-07, 4.61661e-06, 7.66606e-06, 0.000171827, -1.57526e-05
7.72219e-07, 7.19092e-06, 1.19408e-05, 0.000267641, -2.45548e-05
1.49397e-06, 1.32806e-05, 2.2053e-05, 0.000494295, -4.53874e-05
2.80623e-06, 2.4455e-05, 4.06085e-05, 0.000910198, -8.36147e-05
5.11785e-06, 4.42953e-05, 7.3554e-05, 0.00164864, -0.000151485
9.07484e-06, 7.86471e-05, 0.000130597, 0.00292719, -0.000268967
1.56463e-05, 0.000135547, 0.000225081, 0.00504496, -0.000463562
2.63463e-05, 0.000228142, 0.000378839, 0.0084913, -0.000780238
4.32039e-05, 0.000374035, 0.0006211, 0.0139213, -0.00127919
6.93483e-05, 0.000600276, 0.000996781, 0.0223419, -0.00205293
0.000108761, 0.000941355, 0.00156316, 0.0350366, -0.00321941
0.000167011, 0.00144544, 0.0024002, 0.0537982, -0.00494337
0.00025135, 0.00217592, 0.0036132, 0.0809862, -0.0074416
0.000371086, 0.00321233, 0.00533421, 0.119561, -0.0109862
0.000537929, 0.00465642, 0.00773217, 0.173309, -0.0159251
0.000766313, 0.00663305, 0.0110144, 0.246878, -0.0226855
0.00107367, 0.00929301, 0.0154314, 0.345879, -0.0317832
0.00148068, 0.0128149, 0.0212797, 0.476963, -0.0438293
0.00201139, 0.0174068, 0.0289047, 0.64787, -0.0595361
0.00269331, 0.023306, 0.0387006, 0.867435, -0.0797156
0.00355732, 0.030779, 0.0511098, 1.14557, -0.105281
0.00463751, 0.0401196, 0.0666202, 1.49322, -0.137238
0.0059709, 0.051646, 0.0857603, 1.92223, -0.17668
0.007597, 0.0656974, 0.109093, 2.44521, -0.224771
0.00955723, 0.0826532, 0.137249, 3.0763, -0.282814
0.0118944, 0.102834, 0.17076, 3.82741, -0.351919
0.0146517, 0.126625, 0.210266, 4.71291, -0.433419
0.0178725, 0.154389, 0.25637, 5.74627, -0.528575
0.0215986, 0.186473, 0.309646, 6.9404, -0.638605
0.0258706, 0.22327, 0.370748, 8.30994, -0.764897
0.030726, 0.264958, 0.439974, 9.86157, -0.908128
0.036199, 0.311845, 0.517831, 11.6067, -1.06942
0.0423199, 0.364142, 0.604673, 13.5531, -1.24962
0.0491139, 0.422002, 0.700751, 15.7066, -1.44938
0.0566014, 0.485651, 0.806443, 18.0756, -1.66966
0.0647972, 0.554865, 0.921376, 20.6517, -1.90991
0.0737097, 0.629698, 1.04564, 23.4369, -2.17061
0.0833421, 0.710025, 1.17902, 26.4266, -2.45166
0.093691, 0.795845, 1.32153, 29.6208, -2.75347
0.104747, 0.886485, 1.47204, 32.9944, -3.07418
0.116496, 0.981753, 1.63024, 36.5402, -3.41364
0.128917, 1.08147, 1.79583, 40.2518, -3.77185
0.141984, 1.18467, 1.9672, 44.0928, -4.14601
0.155668, 1.29102, 2.14379, 48.0509, -4.53562
0.169936, 1.39994, 2.32465, 52.1048, -4.93933
0.184748, 1.5108, 2.50874, 56.231, -5.35556
0.200061, 1.62329, 2.69554, 60.4179, -5.78389
0.215836, 1.7362, 2.88303, 64.6203, -6.22042
0.232027, 1.8492, 3.07067, 68.826, -6.66447
0.248583, 1.9617, 3.25749, 73.0133, -7.11428
0.26546, 2.0732, 3.44264, 77.1633, -7.56826
0.28261, 2.18321, 3.62531, 81.2577, -8.02472
0.299983, 2.29129, 3.80478, 85.2803, -8.48205
0.317531, 2.39708, 3.98044, 89.2176, -8.93875
0.335211, 2.50027, 4.1518, 93.0585, -9.39346
0.352973, 2.60095, 4.31898, 96.8057, -9.84632
0.370776, 2.69826, 4.48057, 100.427, -10.2932
0.388577, 2.79237, 4.63683, 103.93, -10.7345
0.406335, 2.88317, 4.78762, 107.31, -11.1691
0.424014, 2.97063, 4.93285, 110.565, -11.5964
0.441577, 3.05472, 5.07248, 113.695, -12.0155
0.45899, 3.13543, 5.20651, 116.699, -12.4258
0.476224, 3.21313, 5.33553, 119.591, -12.8284
0.493249, 3.28724, 5.45859, 122.349, -13.2198
0.51004, 3.35811, 5.57627, 124.987, -13.601
0.526574, 3.42585, 5.68875, 127.508, -13.9719
0.542828, 3.49084, 5.79667, 129.927, -14.3338
0.558785, 3.55259, 5.89922, 132.225, -14.6835
0.574429, 3.61148, 5.997, 134.417, -15.0224
0.589744, 3.66762, 6.09023, 136.506, -15.3505
0.60472, 3.72143, 6.17958, 138.509, -15.6696
0.619345, 3.77243, 6.26427, 140.407, -15.9764
0.633613, 3.82098, 6.34489, 142.214, -16.2725
0.647515, 3.8672, 6.42164, 143.935, -16.5582
0.661048, 3.91152, 6.49524, 145.584, -16.8354
0.674208, 3.95344, 6.56484, 147.144, -17.1009
0.686993, 3.9933, 6.63103, 148.628, -17.3563
0.699403, 4.03155, 6.69455, 150.052, -17.604
0.711438, 4.06767, 6.75453, 151.396, -17.8404
0.7231, 4.10234, 6.81209, 152.686, -18.0695
0.734393, 4.13504, 6.8664, 153.903, -18.2878
0.745319, 4.16612, 6.91801, 155.06, -18.4972
0.755882, 4.19601, 6.96764, 156.173, -18.7003
0.766089, 4.22417, 7.0144, 157.221, -18.8933
0.775945, 4.25126, 7.05938, 158.229, -19.0803
0.785456, 4.27674, 7.10169, 159.177, -19.2576
0.794627, 4.30093, 7.14186, 160.078, -19.4272
0.803468, 4.32429, 7.18066, 160.947, -19.5921
0.811985, 4.34621, 7.21705, 161.763, -19.7478
0.820185, 4.36738, 7.25221, 162.551, -19.8991
0.828078, 4.38722, 7.28515, 163.289, -20.0418
0.83567, 4.40641, 7.31702, 164.004, -20.1805
0.842971, 4.42435, 7.34681, 164.671, -20.311
0.849988, 4.44175, 7.3757, 165.319, -20.4381
0.856729, 4.45797, 7.40263, 165.923, -20.5573
0.863204, 4.47374, 7.42882, 166.51, -20.6736
0.86942, 4.48882, 7.45386, 167.071, -20.7852
0.875387, 4.50279, 7.47707, 167.591, -20.8893
0.88111, 4.51642, 7.49969, 168.098, -20.991
0.8866, 4.52903, 7.52063, 168.567, -21.0857
0.891863, 4.54137, 7.54113, 169.027, -21.1786
0.896909, 4.55276, 7.56004, 169.451, -21.2646
0.901745, 4.56395, 7.57862, 169.867, -21.3495
0.906377, 4.57469, 7.59646, 170.267, -21.4311
0.910814, 4.5845, 7.61273, 170.632, -21.5058
0.915063, 4.59416, 7.62878, 170.992, -21.5798
0.91913, 4.60345, 7.64421, 171.337, -21.651
0.923024, 4.61187, 7.65819, 171.651, -21.7157
0.92675, 4.62021, 7.67204, 171.961, -21.78
0.930314, 4.62825, 7.68539, 172.26, -21.842
0.933725, 4.63546, 7.69737, 172.529, -21.8979
0.936986, 4.64265, 7.70931, 172.796, -21.9537
0.940106, 4.64961, 7.72086, 173.055, -22.0078
0.943088, 4.65577, 7.73109, 173.285, -22.0558
0.94594, 4.66196, 7.74137, 173.515, -22.1041
0.948665, 4.66798, 7.75136, 173.739, -22.1511
0.95127, 4.67376, 7.76097, 173.954, -22.1964
0.953759, 4.67878, 7.76929, 174.141, -22.2357
0.956137, 4.68385, 7.77771, 174.33, -22.2755
0.95841, 4.6888, 7.78594, 174.514, -22.3145
0.960579, 4.69359, 7.79388, 174.692, -22.3521
0.962652, 4.69762, 7.80059, 174.842, -22.3839
0.964632, 4.70175, 7.80744, 174.996, -22.4166
0.966523, 4.70582, 7.8142, 175.148, -22.4488
0.968328, 4.70977, 7.82076, 175.294, -22.48
0.970052, 4.71357, 7.82706, 175.436, -22.5101
0.971698, 4.71665, 7.83218, 175.55, -22.5345
0.973268, 4.71983, 7.83746, 175.669, -22.5597
0.974768, 4.723, 7.84272, 175.787, -22.5849
0.976199, 4.7261, 7.84787, 175.902, -22.6096
0.977565, 4.72909, 7.85284, 176.014, -22.6335
0.978869, 4.73138, 7.85664, 176.099, -22.6516
0.980113, 4.7344, 7.86166, 176.211, -22.6757
0.981301, 4.73661, 7.86532, 176.293, -22.6933
0.982433, 4.73887, 7.86909, 176.378, -22.7114
0.983513, 4.74114, 7.87284, 176.462, -22.7295
0.984545, 4.74336, 7.87653, 176.545, -22.7472
0.985528, 4.74552, 7.88012, 176.625, -22.7645
0.986467, 4.74626, 7.88135, 176.653, -22.7703
0.987362, 4.74937, 7.88652, 176.768, -22.7955
0.988217, 4.75009, 7.88771, 176.795, -22.8011
0.98903, 4.75244, 7.89161, 176.882, -22.82
0.989807, 4.75319, 7.89286, 176.911, -22.8259
0.990548, 4.75555, 7.89678, 176.998, -22.845
0.991255, 4.75629, 7.898, 177.026, -22.8509
0.99193, 4.75856, 7.90178, 177.11, -22.8692
0.992572, 4.75927, 7.90295, 177.137, -22.8748
0.993185, 4.7614, 7.9065, 177.216, -22.8921
0.993769, 4.76206, 7.90759, 177.241, -22.8972
0.994327, 4.76279, 7.9088, 177.268, -22.903
0.994859, 4.76356, 7.91009, 177.297, -22.9092
0.995366, 4.76577, 7.91374, 177.379, -22.9272
0.995849, 4.76642, 7.91483, 177.403, -22.9323
0.99631, 4.76712, 7.91598, 177.429, -22.9379
0.996749, 4.76784, 7.91718, 177.456, -22.9437
0.997169, 4.76858, 7.91842, 177.483, -22.9497
0.997568, 4.76934, 7.91967, 177.511, -22.9557
0.997949, 4.7701, 7.92093, 177.54, -22.9619
0.998312, 4.77085, 7.92219, 177.568, -22.968
0.998659, 4.77161, 7.92344, 177.596, -22.9741
0.998988, 4.77235, 7.92467, 177.624, -22.9801
0.999302, 4.77308, 7.92588, 177.651, -22.986
0.999603, 4.77379, 7.92707, 177.677, -22.9918
0.999889, 4.77449, 7.92823, 177.703, -22.9974
1.00016, 4.77517, 7.92936, 177.729, -23.0029
1.00042, 4.77583, 7.93046, 177.753, -23.0082
1.00067, 4.77647, 7.93152, 177.777, -23.0134
1.00091, 4.77709, 7.93255, 177.8, -23.0184
1.00113, 4.77769, 7.93355, 177.823, -23.0232
1.00134, 4.77827, 7.93451, 177.844, -23.0279
1.00155, 4.77883, 7.93544, 177.865, -23.0324
1.00174, 4.77937, 7.93633, 177.885, -23.0367
1.00193, 4.77989, 7.93719, 177.904, -23.0408
1.00211, 4.78039, 7.93802, 177.923, -23.0448
1.00228, 4.78087, 7.93882, 177.941, -23.0486
1.00244, 4.78133, 7.93958, 177.958, -23.0523
1.00259, 4.78177, 7.94032, 177.974, -23.0558
1.00274, 4.78219, 7.94102, 177.99, -23.0592
